# Thorlabs protected aluminum coating (-G01), 12 deg AOI, unpolarized
# Source: thorlabs_protected_aluminum_coating.xlsx
wavelength_nm,reflectance
300,0.91038
310,0.90282
320,0.89261
330,0.87866
340,0.86343
350,0.84836
360,0.83690
370,0.83058
380,0.83067
390,0.83622
400,0.84516
410,0.85559
420,0.86612
430,0.87557
440,0.88384
450,0.89125
460,0.89714
470,0.90187
480,0.90598
490,0.90896
500,0.91097
510,0.91284
520,0.91381
530,0.91437
540,0.91461
550,0.91438
560,0.91375
570,0.91255
580,0.91151
590,0.90962
600,0.90773
610,0.90551
620,0.90275
630,0.90014
640,0.89715
650,0.89335
660,0.88966
670,0.88552
680,0.88126
690,0.87655
700,0.87164
710,0.86605
720,0.86028
730,0.85414
740,0.84736
750,0.84004
760,0.83229
770,0.82395
780,0.81524
790,0.80646
800,0.79789
810,0.79017
820,0.78403
830,0.77990
840,0.77897
850,0.78055
860,0.78502
870,0.79162
880,0.79962
890,0.81492
900,0.82339
910,0.83187
920,0.83982
930,0.84702
940,0.85367
950,0.85979
960,0.86542
970,0.87034
980,0.87494
990,0.87908
1000,0.88295
1010,0.88631
1020,0.88984
1030,0.89285
1040,0.89540
1050,0.89814
1060,0.90062
1070,0.90293
1080,0.90504
1090,0.90702
1100,0.90865
1110,0.91019
1120,0.91193
1130,0.91348
1140,0.91492
1150,0.91662
1160,0.91806
1170,0.91924
1180,0.92018
1190,0.92161
1200,0.92291
1210,0.92380
1220,0.92473
1230,0.92592
1240,0.92704
1250,0.92797
1260,0.92888
1270,0.92998
1280,0.93117
1290,0.93223
1300,0.93292
1310,0.93371
1320,0.93451
1330,0.93521
1340,0.93570
1350,0.93623
1360,0.93778
1370,0.93881
1380,0.93921
1390,0.93949
1400,0.93994
1410,0.94074
1420,0.94147
1430,0.94217
1440,0.94273
1450,0.94303
1460,0.94353
1470,0.94457
1480,0.94577
1490,0.94612
1500,0.94664
1510,0.94710
1520,0.94740
1530,0.94779
1540,0.94836
1550,0.94864
1560,0.94885
1570,0.94932
1580,0.94996
1590,0.95040
1600,0.95075
1610,0.95112
1620,0.95122
1630,0.95192
1640,0.95208
1650,0.95248
1660,0.95304
1670,0.95358
1680,0.95432
1690,0.95492
1700,0.95567
1710,0.95613
1720,0.95648
1730,0.95649
1740,0.95664
1750,0.95725
1760,0.95743
1770,0.95751
1780,0.95769
1790,0.95761
1800,0.95785
1810,0.95781
1820,0.95815
1830,0.95828
1840,0.95886
1850,0.95889
1860,0.95897
1870,0.95984
1880,0.95992
1890,0.96031
1900,0.96028
1910,0.96075
1920,0.96130
1930,0.96185
1940,0.96263
1950,0.96306
1960,0.96312
1970,0.96315
1980,0.96294
1990,0.96311
2000,0.96311
2010,0.96374
2020,0.96391
2030,0.96397
2040,0.96411
2050,0.96421
2060,0.96460
2070,0.96471
2080,0.96539
2090,0.96581
2100,0.96585
2110,0.96544
2120,0.96547
2130,0.96523
2140,0.96537
2150,0.96486
2160,0.96479
2170,0.96525
2180,0.96510
2190,0.96541
2200,0.96515
2210,0.96502
2220,0.96528
2230,0.96443
2240,0.96525
2250,0.96547
2260,0.96611
2270,0.96704
2280,0.96730
2290,0.96864
2300,0.96893
2310,0.96909
2320,0.96962
2330,0.96849
2340,0.96811
2350,0.96953
2360,0.96987
2370,0.96987
2380,0.96989
2390,0.96938
2400,0.96991
2410,0.96941
2420,0.97023
2430,0.96952
2440,0.97073
2450,0.97119
2460,0.97152
2470,0.97112
2480,0.97209
2490,0.97235
2500,0.97173
2510,0.97188
2520,0.97067
2530,0.97185
2540,0.97106
2550,0.97020
2560,0.96766
2570,0.96787
2580,0.96646
2590,0.96964
2600,0.97179
2610,0.96883
2620,0.96904
2630,0.96924
2640,0.96945
2650,0.96965
2660,0.96985
2670,0.97004
2680,0.97023
2690,0.97043
2700,0.97061
2710,0.97079
2720,0.97097
2730,0.97115
2739,0.97132
2750,0.97149
2760,0.97166
2770,0.97183
2780,0.97199
2790,0.97215
2800,0.97231
2810,0.97246
2820,0.97261
2830,0.97276
2839,0.97291
2850,0.97305
2859,0.97319
2870,0.97333
2880,0.97346
2889,0.97359
2900,0.97372
2910,0.97385
2919,0.97398
2929,0.97410
2940,0.97422
2949,0.97433
2959,0.97445
2969,0.97456
2980,0.97467
2990,0.97478
3000,0.97489
3009,0.97499
3019,0.97509
3029,0.97519
3039,0.97528
3049,0.97537
3059,0.97547
3069,0.97555
3079,0.97564
3089,0.97573
3099,0.97581
3109,0.97589
3119,0.97597
3129,0.97604
3139,0.97611
3149,0.97619
3159,0.97625
3169,0.97632
3179,0.97639
3189,0.97645
3199,0.97651
3209,0.97657
3219,0.97663
3229,0.97668
3239,0.97674
3249,0.97679
3259,0.97684
3269,0.97689
3279,0.97693
3289,0.97698
3299,0.97702
3309,0.97706
3319,0.97710
3329,0.97713
3339,0.97717
3349,0.97720
3359,0.97723
3369,0.97726
3379,0.97729
3389,0.97732
3399,0.97734
3409,0.97736
3419,0.97738
3429,0.97740
3439,0.97742
3449,0.97744
3459,0.97745
3469,0.97747
3479,0.97748
3489,0.97749
3499,0.97750
3509,0.97751
3519,0.97751
3529,0.97751
3539,0.97752
3549,0.97752
3559,0.97752
3569,0.97752
3579,0.97752
3589,0.97751
3599,0.97751
3609,0.97750
3619,0.97749
3629,0.97748
3639,0.97747
3649,0.97746
3659,0.97744
3669,0.97743
3679,0.97741
3689,0.97740
3699,0.97738
3709,0.97736
3719,0.97734
3729,0.97732
3739,0.97729
3749,0.97727
3759,0.97724
3769,0.97722
3779,0.97719
3789,0.97716
3799,0.97713
3809,0.97710
3819,0.97707
3829,0.97704
3839,0.97700
3849,0.97697
3859,0.97693
3869,0.97689
3879,0.97686
3889,0.97682
3899,0.97678
3909,0.97674
3919,0.97669
3929,0.97665
3939,0.97661
3949,0.97656
3959,0.97652
3969,0.97647
3979,0.97642
3989,0.97638
3999,0.97633
4009,0.97628
4019,0.97623
4029,0.97618
4039,0.97613
4049,0.97607
4059,0.97602
4069,0.97596
4079,0.97591
4089,0.97585
4099,0.97580
4109,0.97574
4119,0.97568
4129,0.97562
4139,0.97556
4149,0.97550
4159,0.97544
4169,0.97538
4179,0.97532
4189,0.97526
4199,0.97519
4209,0.97513
4219,0.97507
4229,0.97500
4239,0.97494
4249,0.97487
4259,0.97480
4269,0.97474
4279,0.97467
4289,0.97460
4299,0.97453
4309,0.97446
4319,0.97439
4329,0.97432
4339,0.97425
4349,0.97418
4359,0.97411
4369,0.97404
4379,0.97396
4389,0.97389
4399,0.97382
4409,0.97374
4419,0.97367
4429,0.97359
4439,0.97352
4449,0.97345
4459,0.97337
4469,0.97329
4479,0.97322
4489,0.97314
4499,0.97306
4509,0.97298
4519,0.97291
4529,0.97283
4539,0.97275
4549,0.97267
4559,0.97259
4569,0.97251
4579,0.97243
4588,0.97235
4599,0.97227
4609,0.97219
4619,0.97211
4628,0.97203
4639,0.97195
4648,0.97187
4659,0.97179
4668,0.97171
4679,0.97162
4688,0.97154
4699,0.97146
4709,0.97138
4718,0.97129
4728,0.97121
4739,0.97113
4749,0.97104
4758,0.97096
4768,0.97088
4778,0.97079
4788,0.97071
4798,0.97063
4808,0.97054
4818,0.97046
4829,0.97037
4838,0.97029
4848,0.97021
4858,0.97012
4868,0.97004
4878,0.96995
4888,0.96987
4898,0.96978
4908,0.96970
4918,0.96962
4928,0.96953
4938,0.96945
4948,0.96936
4958,0.96928
4968,0.96919
4978,0.96911
4988,0.96902
4998,0.96894
5009,0.96885
5018,0.96877
5028,0.96868
5038,0.96860
5049,0.96851
5058,0.96843
5068,0.96835
5078,0.96826
5089,0.96817
5098,0.96809
5108,0.96801
5118,0.96792
5129,0.96784
5138,0.96775
5148,0.96767
5158,0.96759
5169,0.96750
5178,0.96742
5188,0.96734
5198,0.96725
5208,0.96717
5218,0.96708
5228,0.96700
5238,0.96692
5248,0.96683
5258,0.96675
5268,0.96667
5279,0.96658
5288,0.96650
5298,0.96642
5308,0.96634
5318,0.96626
5328,0.96618
5338,0.96610
5348,0.96602
5358,0.96593
5368,0.96585
5378,0.96577
5388,0.96569
5398,0.96561
5408,0.96553
5418,0.96545
5428,0.96537
5438,0.96529
5448,0.96521
5458,0.96513
5468,0.96505
5478,0.96498
5488,0.96489
5498,0.96482
5508,0.96474
5518,0.96466
5528,0.96458
5538,0.96451
5548,0.96443
5558,0.96435
5568,0.96428
5578,0.96420
5588,0.96412
5598,0.96405
5608,0.96397
5618,0.96389
5628,0.96382
5638,0.96375
5648,0.96367
5658,0.96360
5668,0.96352
5678,0.96345
5688,0.96338
5698,0.96330
5708,0.96323
5718,0.96316
5728,0.96309
5738,0.96301
5748,0.96294
5758,0.96287
5768,0.96280
5778,0.96273
5788,0.96266
5798,0.96259
5808,0.96252
5818,0.96245
5828,0.96238
5838,0.96231
5847,0.96224
5858,0.96217
5868,0.96211
5878,0.96204
5888,0.96197
5898,0.96191
5908,0.96184
5918,0.96177
5927,0.96171
5938,0.96164
5948,0.96158
5958,0.96151
5968,0.96144
5978,0.96138
5988,0.96132
5998,0.96125
6008,0.96119
6018,0.96113
6028,0.96107
6038,0.96100
6048,0.96094
6057,0.96088
6068,0.96082
6078,0.96076
6088,0.96070
6098,0.96064
6108,0.96058
6118,0.96052
6127,0.96046
6138,0.96040
6148,0.96034
6158,0.96028
6168,0.96023
6177,0.96017
6188,0.96011
6197,0.96006
6208,0.96000
6218,0.95995
6228,0.95989
6238,0.95983
6247,0.95978
6258,0.95973
6267,0.95967
6278,0.95962
6288,0.95957
6298,0.95951
6308,0.95946
6317,0.95941
6328,0.95936
6337,0.95931
6348,0.95926
6357,0.95921
6368,0.95916
6377,0.95911
6388,0.95906
6397,0.95901
6408,0.95896
6418,0.95891
6427,0.95887
6438,0.95882
6447,0.95877
6458,0.95872
6467,0.95868
6478,0.95863
6487,0.95859
6498,0.95854
6507,0.95850
6518,0.95845
6527,0.95841
6538,0.95836
6547,0.95832
6558,0.95828
6567,0.95824
6578,0.95820
6587,0.95816
6598,0.95811
6607,0.95807
6618,0.95803
6627,0.95799
6638,0.95795
6647,0.95791
6658,0.95787
6667,0.95784
6678,0.95780
6687,0.95776
6698,0.95772
6707,0.95769
6717,0.95765
6727,0.95762
6737,0.95758
6747,0.95754
6757,0.95751
6767,0.95747
6777,0.95744
6788,0.95740
6797,0.95737
6808,0.95734
6817,0.95731
6828,0.95727
6837,0.95724
6847,0.95721
6857,0.95718
6867,0.95715
6877,0.95712
6887,0.95709
6898,0.95706
6907,0.95703
6917,0.95700
6927,0.95697
6937,0.95694
6947,0.95692
6957,0.95689
6968,0.95686
6977,0.95683
6987,0.95681
6997,0.95678
7007,0.95676
7017,0.95673
7027,0.95671
7037,0.95668
7047,0.95666
7057,0.95663
7067,0.95661
7077,0.95659
7087,0.95656
7097,0.95654
7107,0.95652
7117,0.95650
7127,0.95648
7137,0.95645
7147,0.95644
7157,0.95641
7167,0.95639
7177,0.95638
7187,0.95636
7197,0.95634
7207,0.95632
7217,0.95630
7227,0.95628
7237,0.95626
7247,0.95625
7257,0.95623
7267,0.95621
7277,0.95620
7287,0.95618
7297,0.95617
7307,0.95615
7317,0.95614
7327,0.95612
7337,0.95611
7347,0.95609
7357,0.95608
7367,0.95607
7377,0.95605
7387,0.95604
7397,0.95603
7407,0.95602
7417,0.95600
7427,0.95599
7437,0.95598
7447,0.95597
7457,0.95596
7467,0.95595
7477,0.95594
7487,0.95593
7497,0.95592
7507,0.95591
7517,0.95590
7527,0.95590
7537,0.95589
7547,0.95588
7557,0.95587
7567,0.95587
7577,0.95586
7587,0.95585
7597,0.95585
7607,0.95584
7617,0.95583
7627,0.95583
7637,0.95582
7647,0.95582
7657,0.95581
7667,0.95581
7677,0.95581
7687,0.95580
7697,0.95580
7707,0.95579
7717,0.95579
7727,0.95579
7737,0.95579
7747,0.95578
7757,0.95578
7767,0.95578
7777,0.95578
7787,0.95578
7797,0.95578
7807,0.95578
7817,0.95578
7826,0.95578
7837,0.95578
7847,0.95578
7857,0.95578
7867,0.95578
7876,0.95578
7887,0.95578
7897,0.95578
7907,0.95578
7916,0.95578
7926,0.95579
7937,0.95579
7947,0.95579
7957,0.95579
7967,0.95580
7976,0.95580
7987,0.95580
7997,0.95581
8007,0.95581
8017,0.95581
8026,0.95582
8036,0.95582
8047,0.95583
8057,0.95583
8067,0.95584
8077,0.95584
8086,0.95585
8096,0.95585
8107,0.95586
8117,0.95587
8127,0.95587
8137,0.95588
8147,0.95589
8156,0.95589
8166,0.95590
8177,0.95591
8187,0.95591
8197,0.95592
8207,0.95593
8217,0.95594
8226,0.95594
8236,0.95595
8246,0.95596
8256,0.95597
8267,0.95598
8277,0.95599
8287,0.95600
8297,0.95600
8307,0.95601
8316,0.95602
8326,0.95603
8336,0.95604
8346,0.95605
8356,0.95606
8366,0.95607
8377,0.95608
8387,0.95609
8397,0.95610
8407,0.95611
8417,0.95612
8427,0.95614
8436,0.95615
8446,0.95616
8456,0.95617
8466,0.95618
8476,0.95619
8486,0.95620
8496,0.95621
8506,0.95623
8516,0.95624
8526,0.95625
8536,0.95626
8546,0.95627
8556,0.95629
8566,0.95630
8576,0.95631
8586,0.95632
8596,0.95634
8606,0.95635
8616,0.95636
8626,0.95637
8636,0.95639
8646,0.95640
8656,0.95641
8666,0.95643
8676,0.95644
8686,0.95645
8696,0.95647
8706,0.95648
8716,0.95649
8726,0.95651
8736,0.95652
8746,0.95654
8756,0.95655
8766,0.95656
8776,0.95658
8786,0.95659
8796,0.95660
8806,0.95662
8816,0.95663
8826,0.95665
8836,0.95666
8846,0.95667
8856,0.95669
8866,0.95670
8876,0.95672
8886,0.95673
8897,0.95675
8906,0.95676
8916,0.95678
8926,0.95679
8936,0.95680
8946,0.95682
8956,0.95683
8966,0.95685
8976,0.95686
8986,0.95688
8996,0.95689
9006,0.95691
9016,0.95692
9026,0.95694
9036,0.95695
9046,0.95696
9056,0.95698
9066,0.95699
9076,0.95701
9086,0.95702
9096,0.95704
9106,0.95705
9116,0.95707
9126,0.95708
9136,0.95709
9146,0.95711
9156,0.95712
9166,0.95714
9176,0.95715
9186,0.95717
9196,0.95718
9206,0.95719
9216,0.95721
9226,0.95722
9236,0.95724
9246,0.95725
9256,0.95727
9266,0.95728
9276,0.95729
9286,0.95731
9296,0.95732
9306,0.95733
9316,0.95735
9326,0.95736
9336,0.95738
9346,0.95739
9356,0.95740
9366,0.95742
9376,0.95743
9386,0.95744
9396,0.95746
9406,0.95747
9416,0.95748
9426,0.95750
9436,0.95751
9446,0.95752
9456,0.95753
9466,0.95755
9476,0.95756
9486,0.95757
9496,0.95758
9506,0.95760
9516,0.95761
9526,0.95762
9536,0.95763
9546,0.95765
9556,0.95766
9566,0.95767
9575,0.95768
9586,0.95769
9596,0.95770
9606,0.95772
9616,0.95773
9626,0.95774
9636,0.95775
9646,0.95776
9656,0.95777
9666,0.95778
9675,0.95779
9686,0.95780
9696,0.95781
9705,0.95782
9716,0.95783
9726,0.95784
9735,0.95785
9746,0.95786
9756,0.95787
9766,0.95788
9776,0.95789
9786,0.95790
9796,0.95791
9806,0.95792
9815,0.95793
9826,0.95794
9836,0.95795
9845,0.95795
9856,0.95796
9865,0.95797
9876,0.95798
9886,0.95799
9895,0.95799
9906,0.95800
9915,0.95801
9926,0.95802
9936,0.95802
9945,0.95803
9956,0.95804
9965,0.95805
9976,0.95805
9985,0.95806
9996,0.95806
10006,0.95807
10015,0.95808
10026,0.95808
10035,0.95809
10046,0.95809
10055,0.95810
10066,0.95810
10075,0.95811
10086,0.95811
10095,0.95812
10106,0.95812
10115,0.95813
10126,0.95813
10135,0.95813
10145,0.95814
10155,0.95814
10165,0.95814
10175,0.95815
10185,0.95815
10195,0.95815
10206,0.95816
10215,0.95816
10226,0.95816
10235,0.95816
10246,0.95816
10255,0.95816
10266,0.95817
10275,0.95817
10286,0.95817
10295,0.95817
10306,0.95817
10315,0.95817
10325,0.95817
10336,0.95817
10345,0.95817
10356,0.95817
10365,0.95817
10375,0.95817
10385,0.95817
10395,0.95817
10406,0.95817
10415,0.95816
10426,0.95816
10435,0.95816
10445,0.95816
10456,0.95815
10465,0.95815
10475,0.95815
10485,0.95815
10495,0.95814
10506,0.95814
10515,0.95814
10525,0.95813
10536,0.95813
10545,0.95812
10555,0.95812
10566,0.95811
10575,0.95811
10585,0.95810
10595,0.95810
10605,0.95809
10615,0.95809
10626,0.95808
10635,0.95807
10645,0.95807
10655,0.95806
10665,0.95805
10675,0.95805
10685,0.95804
10695,0.95803
10705,0.95802
10715,0.95802
10725,0.95801
10735,0.95800
10745,0.95799
10755,0.95798
10765,0.95797
10775,0.95796
10785,0.95795
10795,0.95794
10805,0.95793
10815,0.95792
10825,0.95791
10835,0.95790
10845,0.95789
10855,0.95788
10865,0.95787
10875,0.95785
10885,0.95784
10895,0.95783
10905,0.95782
10915,0.95780
10925,0.95779
10935,0.95778
10945,0.95776
10955,0.95775
10965,0.95774
10975,0.95772
10985,0.95771
10995,0.95769
11005,0.95768
11015,0.95766
11025,0.95765
11035,0.95763
11045,0.95762
11055,0.95760
11065,0.95758
11075,0.95757
11085,0.95755
11095,0.95753
11105,0.95752
11115,0.95750
11125,0.95748
11135,0.95746
11145,0.95744
11155,0.95743
11165,0.95741
11175,0.95739
11185,0.95737
11195,0.95735
11205,0.95733
11215,0.95731
11225,0.95729
11235,0.95727
11245,0.95725
11255,0.95723
11265,0.95721
11275,0.95719
11285,0.95716
11295,0.95714
11305,0.95712
11315,0.95710
11325,0.95707
11335,0.95705
11345,0.95703
11355,0.95701
11365,0.95698
11375,0.95696
11385,0.95693
11395,0.95691
11405,0.95689
11415,0.95686
11425,0.95684
11435,0.95681
11445,0.95679
11455,0.95676
11465,0.95673
11475,0.95671
11485,0.95668
11495,0.95666
11505,0.95663
11515,0.95660
11525,0.95657
11535,0.95655
11544,0.95652
11554,0.95649
11565,0.95646
11575,0.95643
11585,0.95641
11595,0.95638
11605,0.95635
11615,0.95632
11625,0.95629
11634,0.95626
11644,0.95623
11655,0.95620
11665,0.95617
11675,0.95614
11685,0.95611
11694,0.95608
11704,0.95605
11715,0.95601
11725,0.95598
11735,0.95595
11745,0.95592
11754,0.95589
11764,0.95585
11775,0.95582
11785,0.95579
11794,0.95575
11804,0.95572
11815,0.95568
11825,0.95565
11835,0.95562
11844,0.95558
11854,0.95555
11865,0.95551
11875,0.95548
11884,0.95544
11894,0.95541
11905,0.95537
11914,0.95534
11924,0.95530
11935,0.95526
11945,0.95523
11954,0.95519
11964,0.95516
11975,0.95512
11984,0.95508
11994,0.95504
12005,0.95501
12014,0.95497
12024,0.95493
12035,0.95489
12044,0.95485
12054,0.95482
12065,0.95478
12074,0.95474
12084,0.95470
12095,0.95466
12104,0.95462
12115,0.95458
12124,0.95454
12134,0.95450
12145,0.95446
12154,0.95442
12165,0.95438
12174,0.95434
12184,0.95430
12194,0.95425
12204,0.95421
12215,0.95417
12224,0.95413
12235,0.95409
12244,0.95405
12254,0.95401
12264,0.95396
12274,0.95392
12284,0.95388
12294,0.95384
12304,0.95379
12314,0.95375
12324,0.95370
12334,0.95366
12344,0.95362
12354,0.95357
12364,0.95353
12374,0.95349
12384,0.95344
12394,0.95340
12404,0.95335
12414,0.95331
12424,0.95326
12435,0.95322
12444,0.95317
12454,0.95313
12464,0.95308
12474,0.95304
12484,0.95299
12494,0.95295
12504,0.95290
12514,0.95285
12524,0.95281
12534,0.95276
12544,0.95271
12554,0.95267
12564,0.95262
12574,0.95257
12584,0.95253
12594,0.95248
12604,0.95243
12614,0.95239
12624,0.95234
12634,0.95229
12644,0.95224
12654,0.95220
12664,0.95215
12674,0.95210
12684,0.95205
12694,0.95200
12704,0.95195
12714,0.95191
12724,0.95186
12734,0.95181
12744,0.95176
12754,0.95171
12764,0.95166
12774,0.95161
12784,0.95156
12794,0.95152
12804,0.95147
12814,0.95142
12824,0.95137
12834,0.95132
12844,0.95127
12854,0.95122
12864,0.95117
12874,0.95112
12884,0.95107
12894,0.95102
12904,0.95097
12914,0.95092
12924,0.95087
12934,0.95082
12944,0.95077
12954,0.95072
12964,0.95067
12974,0.95062
12984,0.95057
12994,0.95052
13004,0.95047
13014,0.95042
13024,0.95037
13034,0.95032
13044,0.95026
13054,0.95022
13064,0.95017
13074,0.95012
13084,0.95006
13094,0.95001
13104,0.94996
13114,0.94991
13124,0.94986
13134,0.94981
13144,0.94976
13154,0.94971
13164,0.94966
13174,0.94961
13184,0.94955
13194,0.94950
13204,0.94945
13214,0.94940
13224,0.94935
13234,0.94930
13244,0.94925
13253,0.94920
13263,0.94915
13274,0.94909
13284,0.94904
13294,0.94899
13304,0.94894
13314,0.94889
13324,0.94884
13334,0.94879
13344,0.94874
13353,0.94869
13364,0.94864
13374,0.94859
13384,0.94854
13394,0.94849
13404,0.94844
13413,0.94839
13423,0.94834
13434,0.94828
13444,0.94823
13454,0.94818
13463,0.94813
13473,0.94808
13484,0.94803
13494,0.94798
13504,0.94793
13513,0.94788
13524,0.94783
13534,0.94778
13543,0.94773
13553,0.94768
13564,0.94763
13574,0.94758
13583,0.94753
13594,0.94748
13604,0.94743
13613,0.94738
13624,0.94733
13634,0.94729
13643,0.94724
13653,0.94719
13664,0.94714
13673,0.94709
13684,0.94704
13694,0.94699
13703,0.94695
13714,0.94690
13723,0.94685
13733,0.94680
13744,0.94675
13753,0.94670
13764,0.94666
13773,0.94661
13784,0.94656
13793,0.94651
13803,0.94647
13813,0.94642
13823,0.94637
13834,0.94632
13843,0.94628
13854,0.94623
13863,0.94619
13874,0.94614
13883,0.94609
13893,0.94605
13903,0.94600
13913,0.94595
13923,0.94591
13933,0.94586
13944,0.94582
13953,0.94577
13964,0.94573
13973,0.94569
13983,0.94564
13993,0.94560
14003,0.94555
14014,0.94551
14023,0.94546
14033,0.94542
14044,0.94537
14053,0.94533
14063,0.94529
14074,0.94525
14083,0.94520
14093,0.94516
14104,0.94512
14113,0.94508
14123,0.94504
14133,0.94499
14143,0.94495
14153,0.94491
14163,0.94487
14174,0.94483
14183,0.94479
14193,0.94475
14203,0.94471
14213,0.94467
14223,0.94463
14233,0.94459
14243,0.94455
14253,0.94451
14263,0.94447
14273,0.94443
14283,0.94439
14293,0.94436
14303,0.94432
14313,0.94428
14323,0.94424
14333,0.94421
14343,0.94417
14353,0.94413
14363,0.94410
14373,0.94406
14383,0.94402
14393,0.94399
14403,0.94395
14413,0.94392
14423,0.94388
14433,0.94385
14443,0.94382
14453,0.94378
14463,0.94375
14473,0.94371
14483,0.94368
14493,0.94365
14503,0.94362
14513,0.94358
14523,0.94355
14533,0.94352
14543,0.94349
14553,0.94346
14563,0.94343
14573,0.94340
14583,0.94337
14593,0.94334
14603,0.94331
14613,0.94328
14623,0.94325
14633,0.94322
14643,0.94319
14653,0.94317
14663,0.94314
14673,0.94311
14683,0.94309
14693,0.94306
14703,0.94303
14713,0.94301
14723,0.94298
14733,0.94296
14743,0.94293
14753,0.94291
14763,0.94288
14773,0.94286
14783,0.94284
14793,0.94281
14803,0.94279
14813,0.94277
14823,0.94275
14833,0.94273
14843,0.94271
14853,0.94268
14863,0.94266
14873,0.94264
14883,0.94262
14893,0.94261
14903,0.94259
14913,0.94257
14923,0.94255
14933,0.94253
14943,0.94251
14953,0.94250
14963,0.94248
14973,0.94247
14983,0.94245
14993,0.94243
15003,0.94242
15013,0.94240
15023,0.94239
15033,0.94238
15043,0.94236
15053,0.94235
15063,0.94234
15072,0.94233
15083,0.94231
15093,0.94230
15103,0.94229
15113,0.94228
15123,0.94227
15133,0.94226
15143,0.94225
15153,0.94224
15163,0.94223
15172,0.94223
15183,0.94222
15193,0.94221
15202,0.94221
